# Title: Dye Laser Frequency Scan, Depressed Limit
# Note:	Dye laser frequency scan to find the depressed ionization limit. SFIP with 150 VDC. Short (500 ns) integration gate. Started by using diode laser and Stark Broadening of 27f.
# Type:	Frequency
# Hittite Freq:	18513.1 MHz
# Hittite: Power	14 dBm
# Laser Freq:	NaN
# Laser Mod:	NaN
# Laser Mod Attn:	NaN
# MW Attn:	MAX
# Delay:	1000 ns
# MW Off:	20 ns
# Top w/o Static:	NaN
# Static:	NaN
# Static Off:	NaN
i	f	n	nb	s	sb
0	77.18	0.0142052	0.0117768	0.0114512	0.00636243	
1	76.88	0.0142052	0.0117768	0.0107278	0.00636243	
2	76.58	0.0142052	0.0117768	0.0110237	0.00636243	
3	76.48	0.0142052	0.0117768	0.012635	0.00636243	
4	76.18	0.0142052	0.0117768	0.0115499	0.00636243	
5	76.08	0.0142052	0.0117768	0.0116814	0.00636243	
6	75.88	0.0142052	0.0117768	0.00766956	0.00636243	
7	75.78	0.0142052	0.0117768	0.00543346	0.00636243	
8	75.78	0.0142052	0.0117768	0.00803129	0.00636243	
9	75.48	0.0142052	0.0117768	0.0129968	0.00636243	
10	75.08	0.0142052	0.0117768	0.0088205	0.00636243	
11	74.78	0.0142052	0.0117768	0.00852454	0.00636243	
12	74.68	0.0142052	0.0117768	0.0158905	0.00636243	
13	74.48	0.0142052	0.0117768	0.00898492	0.00636243	
14	74.08	0.0142052	0.0117768	0.0144765	0.00636243	
15	73.58	0.0142052	0.0117768	0.0103003	0.00636243	
16	73.28	0.0142052	0.0117768	0.00914934	0.00636243	
17	72.78	0.0142052	0.0117768	0.0108922	0.00636243	
18	72.48	0.0142052	0.0117768	0.0086232	0.00636243	
19	72.18	0.0142052	0.0117768	0.00757091	0.00636243	
20	71.58	0.0142052	0.0117768	0.0101359	0.00636243	
21	71.08	0.0142052	0.0117768	0.00773533	0.00636243	
22	70.38	0.0142052	0.0117768	0.00543346	0.00636243	
23	70.08	0.0142052	0.0117768	0.00812994	0.00636243	
24	69.68	0.0142052	0.0117768	0.0122075	0.00636243	
25	68.98	0.0142052	0.0117768	0.0147067	0.00636243	
26	68.68	0.0142052	0.0117768	0.0106949	0.00636243	
27	68.08	0.0142052	0.0117768	0.0104976	0.00636243	
28	67.28	0.0142052	0.0117768	0.00849166	0.00636243	
29	66.68	0.0142052	0.0117768	0.00993855	0.00636243	
30	66.18	0.0142052	0.0117768	0.00977413	0.00636243	
31	65.58	0.0142052	0.0117768	0.0118787	0.00636243	
32	64.78	0.0142052	0.0117768	0.0132598	0.00636243	
33	63.98	0.0142052	0.0117768	0.0096426	0.00636243	
34	63.68	0.0142052	0.0117768	0.0108593	0.00636243	
35	62.88	0.0142052	0.0117768	0.0104976	0.00636243	
36	62.18	0.0142052	0.0117768	0.0115827	0.00636243	
37	61.28	0.0142052	0.0117768	0.0133256	0.00636243	
38	60.68	0.0142052	0.0117768	0.0128323	0.00636243	
39	60.18	0.0142052	0.0117768	0.010958	0.00636243	
40	59.38	0.0142052	0.0117768	0.00977413	0.00636243	
41	58.58	0.0142052	0.0117768	0.0079984	0.00636243	
42	57.98	0.0142052	0.0117768	0.0114183	0.00636243	
43	57.28	0.0142052	0.0117768	0.0111881	0.00636243	
44	56.68	0.0142052	0.0117768	0.0107278	0.00636243	
45	55.98	0.0142052	0.0117768	0.00905069	0.00636243	
46	55.08	0.0142052	0.0117768	0.0067817	0.00636243	
47	54.48	0.0142052	0.0117768	0.0130625	0.00636243	
48	53.58	0.0142052	0.0117768	0.0107606	0.00636243	
49	52.98	0.0142052	0.0117768	0.00793264	0.00636243	
50	51.88	0.0142052	0.0117768	0.0108593	0.00636243	
51	51.38	0.0142052	0.0117768	0.0117143	0.00636243	
52	50.68	0.0142052	0.0117768	0.00816282	0.00636243	
53	49.78	0.0142052	0.0117768	0.00970836	0.00636243	
54	48.88	0.0142052	0.0117768	0.0104647	0.00636243	
55	48.28	0.0142052	0.0117768	0.00806417	0.00636243	
56	47.48	0.0142052	0.0117768	0.0090178	0.00636243	
57	46.68	0.0142052	0.0117768	0.00832724	0.00636243	
58	45.58	0.0142052	0.0117768	0.00924799	0.00636243	
59	44.88	0.0142052	0.0117768	0.00737361	0.00636243	
60	43.88	0.0142052	0.0117768	0.00970836	0.00636243	
61	42.98	0.0142052	0.0117768	0.0119116	0.00636243	
62	42.18	0.0142052	0.0117768	0.00388792	0.00636243	
63	41.08	0.0142052	0.0117768	0.00826147	0.00636243	
64	39.98	0.0142052	0.0117768	0.00908357	0.00636243	
65	39.28	0.0142052	0.0117768	0.00888627	0.00636243	
66	38.38	0.0142052	0.0117768	0.00740649	0.00636243	
67	37.38	0.0142052	0.0117768	0.00908357	0.00636243	
68	36.48	0.0142052	0.0117768	0.00711054	0.00636243	
69	35.78	0.0142052	0.0117768	0.00868896	0.00636243	
70	34.78	0.0142052	0.0117768	0.0105633	0.00636243	
71	33.78	0.0142052	0.0117768	0.0110237	0.00636243	
72	32.88	0.0142052	0.0117768	0.00908357	0.00636243	
73	32.18	0.0142052	0.0117768	0.00829436	0.00636243	
74	30.88	0.0142052	0.0117768	0.00921511	0.00636243	
75	30.28	0.0142052	0.0117768	0.00714342	0.00636243	
76	29.38	0.0142052	0.0117768	0.00717631	0.00636243	
77	28.58	0.0142052	0.0117768	0.0079984	0.00636243	
78	27.08	0.0142052	0.0117768	0.00569653	0.00636243	
79	26.68	0.0142052	0.0117768	0.00444694	0.00636243	
80	25.88	0.0142052	0.0117768	0.00602537	0.00636243	
81	25.18	0.0142052	0.0117768	0.00724207	0.00636243	
82	24.38	0.0142052	0.0117768	0.00789975	0.00636243	
83	23.78	0.0142052	0.0117768	0.00970836	0.00636243	
84	22.98	0.0142052	0.0117768	0.00563076	0.00636243	
85	21.98	0.0142052	0.0117768	0.00770245	0.00636243	
86	21.18	0.0142052	0.0117768	0.00796552	0.00636243	
87	20.38	0.0142052	0.0117768	0.00457848	0.00636243	
88	19.58	0.0142052	0.0117768	0.00635421	0.00636243	
89	18.58	0.0142052	0.0117768	0.00832724	0.00636243	
90	17.88	0.0142052	0.0117768	0.00175047	0.00636243	
91	17.08	0.0142052	0.0117768	0.00365773	0.00636243	
92	16.38	0.0142052	0.0117768	0.00674882	0.00636243	
93	15.18	0.0142052	0.0117768	0.0113854	0.00636243	
94	14.58	0.0142052	0.0117768	0.00734073	0.00636243	
95	13.78	0.0142052	0.0117768	0.00934664	0.00636243	
96	12.88	0.0142052	0.0117768	0.00536769	0.00636243	
97	11.88	0.0142052	0.0117768	0.00793264	0.00636243	
98	11.38	0.0142052	0.0117768	0.00668305	0.00636243	
99	10.38	0.0142052	0.0117768	0.00605825	0.00636243	
100	9.28	0.0142052	0.0117768	0.00967548	0.00636243	
101	8.58	0.0142052	0.0117768	0.00757091	0.00636243	
102	7.88	0.0142052	0.0117768	0.00605825	0.00636243	
103	6.88	0.0142052	0.0117768	0.00638709	0.00636243	
104	6.08	0.0142052	0.0117768	0.00300005	0.00636243	
105	5.28	0.0142052	0.0117768	0.00418387	0.00636243	
106	4.58	0.0142052	0.0117768	0.00428252	0.00636243	
107	3.48	0.0142052	0.0117768	0.00730784	0.00636243	
108	2.78	0.0142052	0.0117768	0.00451271	0.00636243	
109	1.78	0.0142052	0.0117768	0.00618979	0.00636243	
110	0.98	0.0142052	0.0117768	0.00707765	0.00636243	
111	0.18	0.0142052	0.0117768	0.00599249	0.00636243	
112	-0.72	0.0142052	0.0117768	0.00829436	0.00636243	
113	-1.72	0.0142052	0.0117768	0.00766956	0.00636243	
114	-2.62	0.0142052	0.0117768	0.00832724	0.00636243	
115	-3.32	0.0142052	0.0117768	0.00625556	0.00636243	
116	-4.32	0.0142052	0.0117768	0.005565	0.00636243	
117	-4.92	0.0142052	0.0117768	0.00816282	0.00636243	
118	-5.92	0.0142052	0.0117768	0.00753803	0.00636243	
119	-6.52	0.0142052	0.0117768	0.00559788	0.00636243	
120	-7.12	0.0142052	0.0117768	0.00612402	0.00636243	
121	-7.92	0.0142052	0.0117768	0.00549923	0.00636243	
122	-8.92	0.0142052	0.0117768	0.00701189	0.00636243	
123	-9.52	0.0142052	0.0117768	0.00674882	0.00636243	
124	-10.42	0.0142052	0.0117768	0.00681458	0.00636243	
125	-10.82	0.0142052	0.0117768	0.00720919	0.00636243	
126	-11.72	0.0142052	0.0117768	0.00625556	0.00636243	
127	-12.52	0.0142052	0.0117768	0.00878762	0.00636243	
128	-13.12	0.0142052	0.0117768	0.00766956	0.00636243	
129	-14.02	0.0142052	0.0117768	0.00612402	0.00636243	
130	-14.62	0.0142052	0.0117768	0.00786687	0.00636243	
131	-15.52	0.0142052	0.0117768	0.0090178	0.00636243	
132	-16.52	0.0142052	0.0117768	0.0079984	0.00636243	
133	-17.12	0.0142052	0.0117768	0.0101687	0.00636243	
134	-17.42	0.0142052	0.0117768	0.0108593	0.00636243	
135	-18.92	0.0142052	0.0117768	0.00789975	0.00636243	
136	-19.72	0.0142052	0.0117768	0.00240814	0.00636243	
137	-20.82	0.0142052	0.0117768	0.0131941	0.00636243	
138	-21.52	0.0142052	0.0117768	0.00895204	0.00636243	
139	-22.32	0.0142052	0.0117768	0.0125364	0.00636243	
140	-23.12	0.0142052	0.0117768	0.00803129	0.00636243	
141	-24.32	0.0142052	0.0117768	0.0111881	0.00636243	
142	-25.02	0.0142052	0.0117768	0.00720919	0.00636243	
143	-25.82	0.0142052	0.0117768	0.0106291	0.00636243	
144	-26.92	0.0142052	0.0117768	0.00960971	0.00636243	
145	-27.82	0.0142052	0.0117768	0.0132269	0.00636243	
146	-28.72	0.0142052	0.0117768	0.0123062	0.00636243	
147	-30.02	0.0142052	0.0117768	0.0130625	0.00636243	
148	-30.72	0.0142052	0.0117768	0.0143779	0.00636243	
149	-31.42	0.0142052	0.0117768	0.0124377	0.00636243	
150	-32.82	0.0142052	0.0117768	0.0149698	0.00636243	
151	-33.42	0.0142052	0.0117768	0.0144765	0.00636243	
152	-34.52	0.0142052	0.0117768	0.0199024	0.00636243	
153	-35.32	0.0142052	0.0117768	0.0164824	0.00636243	
154	-36.22	0.0142052	0.0117768	0.0220398	0.00636243	
155	-37.02	0.0142052	0.0117768	0.0186528	0.00636243	
156	-37.92	0.0142052	0.0117768	0.0173703	0.00636243	
157	-38.92	0.0142052	0.0117768	0.023125	0.00636243	
158	-39.82	0.0142052	0.0117768	0.0262161	0.00636243	
159	-40.22	0.0142052	0.0117768	0.0259201	0.00636243	
160	-41.12	0.0142052	0.0117768	0.0285837	0.00636243	
161	-42.32	0.0142052	0.0117768	0.0301621	0.00636243	
162	-42.92	0.0142052	0.0117768	0.0279589	0.00636243	
163	-43.42	0.0142052	0.0117768	0.0318721	0.00636243	
164	-44.22	0.0142052	0.0117768	0.0337794	0.00636243	
165	-45.22	0.0142052	0.0117768	0.0363772	0.00636243	
166	-45.82	0.0142052	0.0117768	0.0423621	0.00636243	
167	-46.52	0.0142052	0.0117768	0.0426251	0.00636243	
168	-48.12	0.0142052	0.0117768	0.0505501	0.00636243	
169	-48.62	0.0142052	0.0117768	0.0444337	0.00636243	
170	-49.42	0.0142052	0.0117768	0.0466041	0.00636243	
171	-50.32	0.0142052	0.0117768	0.0508132	0.00636243	
172	-51.02	0.0142052	0.0117768	0.0517668	0.00636243	
173	-51.92	0.0142052	0.0117768	0.0533453	0.00636243	
174	-52.72	0.0142052	0.0117768	0.0564364	0.00636243	
175	-53.42	0.0142052	0.0117768	0.056831	0.00636243	
176	-54.42	0.0142052	0.0117768	0.0589355	0.00636243	
177	-55.12	0.0142052	0.0117768	0.0592644	0.00636243	
178	-55.92	0.0142052	0.0117768	0.0598892	0.00636243	
179	-56.62	0.0142052	0.0117768	0.0632104	0.00636243	
180	-57.92	0.0142052	0.0117768	0.059363	0.00636243	
181	-58.42	0.0142052	0.0117768	0.0622239	0.00636243	
182	-59.32	0.0142052	0.0117768	0.0688336	0.00636243	
183	-60.22	0.0142052	0.0117768	0.0600865	0.00636243	
184	-61.12	0.0142052	0.0117768	0.0615991	0.00636243	
185	-61.72	0.0142052	0.0117768	0.0588698	0.00636243	
186	-62.72	0.0142052	0.0117768	0.0625528	0.00636243	
187	-63.62	0.0142052	0.0117768	0.0595932	0.00636243	
188	-64.52	0.0142052	0.0117768	0.0578175	0.00636243	
189	-65.32	0.0142052	0.0117768	0.0593301	0.00636243	
190	-66.32	0.0142052	0.0117768	0.0592315	0.00636243	
191	-67.12	0.0142052	0.0117768	0.061632	0.00636243	
192	-67.82	0.0142052	0.0117768	0.0672552	0.00636243	
193	-68.92	0.0142052	0.0117768	0.0646573	0.00636243	
194	-69.62	0.0142052	0.0117768	0.0685376	0.00636243	
195	-70.52	0.0142052	0.0117768	0.0650191	0.00636243	
196	-71.22	0.0142052	0.0117768	0.0660713	0.00636243	
197	-72.22	0.0142052	0.0117768	0.0710368	0.00636243	
198	-77.92	0.0142052	0.0117768	0.0648875	0.00636243	
199	-77.92	0.0142052	0.0117768	0.0620924	0.00636243	
200	-78.42	0.0142052	0.0117768	0.0648546	0.00636243	
201	-79.02	0.0142052	0.0117768	0.0637695	0.00636243	
202	-79.42	0.0142052	0.0117768	0.0714314	0.00636243	
203	-79.72	0.0142052	0.0117768	0.0715301	0.00636243	
204	-80.12	0.0142052	0.0117768	0.0689322	0.00636243	
205	-80.72	0.0142052	0.0117768	0.0657754	0.00636243	
206	-81.32	0.0142052	0.0117768	0.0661371	0.00636243	
207	-81.92	0.0142052	0.0117768	0.0664331	0.00636243	
208	-82.52	0.0142052	0.0117768	0.0715301	0.00636243	
209	-82.92	0.0142052	0.0117768	0.068143	0.00636243	
210	-83.62	0.0142052	0.0117768	0.0687678	0.00636243	
211	-84.22	0.0142052	0.0117768	0.0678142	0.00636243	
212	-84.92	0.0142052	0.0117768	0.0678142	0.00636243	
213	-85.42	0.0142052	0.0117768	0.0702476	0.00636243	
214	-86.02	0.0142052	0.0117768	0.0674196	0.00636243	
215	-87.02	0.0142052	0.0117768	0.0643285	0.00636243	
216	-87.62	0.0142052	0.0117768	0.072977	0.00636243	
217	-87.92	0.0142052	0.0117768	0.0732729	0.00636243	
218	-89.22	0.0142052	0.0117768	0.0691295	0.00636243	
219	-90.02	0.0142052	0.0117768	0.067584	0.00636243	
220	-90.72	0.0142052	0.0117768	0.0680115	0.00636243	
221	-91.42	0.0142052	0.0117768	0.0727139	0.00636243	
222	-92.32	0.0142052	0.0117768	0.0723193	0.00636243	
223	-93.12	0.0142052	0.0117768	0.0705107	0.00636243	
224	-94.02	0.0142052	0.0117768	0.0684719	0.00636243	
225	-94.52	0.0142052	0.0117768	0.0760352	0.00636243	
226	-95.32	0.0142052	0.0117768	0.0694913	0.00636243	
227	-96.52	0.0142052	0.0117768	0.0767257	0.00636243	
228	-97.72	0.0142052	0.0117768	0.0771861	0.00636243	
229	-98.02	0.0142052	0.0117768	0.0763969	0.00636243	
230	-98.92	0.0142052	0.0117768	0.083434	0.00636243	
231	-99.72	0.0142052	0.0117768	0.0759694	0.00636243	
232	-100.72	0.0142052	0.0117768	0.0757063	0.00636243	
233	-101.42	0.0142052	0.0117768	0.0825462	0.00636243	
234	-102.42	0.0142052	0.0117768	0.0667619	0.00636243	
235	-103.52	0.0142052	0.0117768	0.0728454	0.00636243	
236	-104.22	0.0142052	0.0117768	0.0706751	0.00636243	
237	-105.02	0.0142052	0.0117768	0.0709382	0.00636243	
238	-106.02	0.0142052	0.0117768	0.0699516	0.00636243	
239	-107.02	0.0142052	0.0117768	0.0721549	0.00636243	
240	-107.82	0.0142052	0.0117768	0.0747198	0.00636243	
241	-109.02	0.0142052	0.0117768	0.0675182	0.00636243	
242	-109.82	0.0142052	0.0117768	0.0696228	0.00636243	
243	-110.72	0.0142052	0.0117768	0.070708	0.00636243	
244	-111.42	0.0142052	0.0117768	0.0722206	0.00636243	
245	-112.42	0.0142052	0.0117768	0.0737333	0.00636243	
246	-112.92	0.0142052	0.0117768	0.0730098	0.00636243	
247	-113.92	0.0142052	0.0117768	0.071826	0.00636243	
248	-115.02	0.0142052	0.0117768	0.0704778	0.00636243	
249	-115.72	0.0142052	0.0117768	0.0732071	0.00636243	
250	-116.22	0.0142052	0.0117768	0.0729441	0.00636243	
251	-117.22	0.0142052	0.0117768	0.0725495	0.00636243	
252	-118.32	0.0142052	0.0117768	0.0724837	0.00636243	
253	-119.02	0.0142052	0.0117768	0.0730756	0.00636243	
254	-119.92	0.0142052	0.0117768	0.0764626	0.00636243	
255	-121.02	0.0142052	0.0117768	0.0719247	0.00636243	
256	-121.92	0.0142052	0.0117768	0.0699516	0.00636243	
257	-122.32	0.0142052	0.0117768	0.0756077	0.00636243	
258	-123.12	0.0142052	0.0117768	0.0807376	0.00636243	
259	-124.02	0.0142052	0.0117768	0.0780411	0.00636243	
260	-124.92	0.0142052	0.0117768	0.0679457	0.00636243	
261	-125.72	0.0142052	0.0117768	0.075509	0.00636243	
262	-126.52	0.0142052	0.0117768	0.0696886	0.00636243	
263	-127.52	0.0142052	0.0117768	0.0749171	0.00636243	
264	-128.22	0.0142052	0.0117768	0.0674853	0.00636243	
265	-129.22	0.0142052	0.0117768	0.0650191	0.00636243	
266	-130.12	0.0142052	0.0117768	0.0690638	0.00636243	
267	-130.92	0.0142052	0.0117768	0.0737662	0.00636243	
268	-131.62	0.0142052	0.0117768	0.0705435	0.00636243	
269	-132.52	0.0142052	0.0117768	0.0649204	0.00636243	
270	-133.42	0.0142052	0.0117768	0.0709053	0.00636243	
271	-134.32	0.0142052	0.0117768	0.069853	0.00636243	
272	-135.02	0.0142052	0.0117768	0.0622568	0.00636243	
273	-135.72	0.0142052	0.0117768	0.0634406	0.00636243	
274	-136.92	0.0142052	0.0117768	0.068143	0.00636243	
275	-137.42	0.0142052	0.0117768	0.0663344	0.00636243	
276	-138.32	0.0142052	0.0117768	0.0677484	0.00636243	
277	-139.22	0.0142052	0.0117768	0.0689322	0.00636243	
278	-140.22	0.0142052	0.0117768	0.0682746	0.00636243	
279	-140.82	0.0142052	0.0117768	0.0747198	0.00636243	
280	-141.42	0.0142052	0.0117768	0.0658083	0.00636243	
281	-142.22	0.0142052	0.0117768	0.0723193	0.00636243	
282	-143.02	0.0142052	0.0117768	0.0611388	0.00636243	
283	-143.52	0.0142052	0.0117768	0.068439	0.00636243	
284	-144.42	0.0142052	0.0117768	0.0720891	0.00636243	
285	-145.22	0.0142052	0.0117768	0.0712999	0.00636243	
286	-145.92	0.0142052	0.0117768	0.0696557	0.00636243	
287	-146.62	0.0142052	0.0117768	0.0669921	0.00636243	
288	-147.32	0.0142052	0.0117768	0.0689651	0.00636243	
289	-148.42	0.0142052	0.0117768	0.068143	0.00636243	
290	-148.92	0.0142052	0.0117768	0.0700503	0.00636243	
291	-149.72	0.0142052	0.0117768	0.0652821	0.00636243	
292	-150.82	0.0142052	0.0117768	0.0702805	0.00636243	
293	-151.62	0.0142052	0.0117768	0.0688665	0.00636243	
294	-152.32	0.0142052	0.0117768	0.0603495	0.00636243	
295	-153.12	0.0142052	0.0117768	0.0655781	0.00636243	
296	-154.32	0.0142052	0.0117768	0.0684061	0.00636243	
297	-155.22	0.0142052	0.0117768	0.0617307	0.00636243	
298	-155.82	0.0142052	0.0117768	0.06617	0.00636243	
299	-157.02	0.0142052	0.0117768	0.0575215	0.00636243	
300	-157.82	0.0142052	0.0117768	0.0636379	0.00636243	
301	-158.62	0.0142052	0.0117768	0.065315	0.00636243	
302	-159.22	0.0142052	0.0117768	0.0690638	0.00636243	
303	-160.32	0.0142052	0.0117768	0.0655123	0.00636243	
304	-160.92	0.0142052	0.0117768	0.069853	0.00636243	
305	-161.82	0.0142052	0.0117768	0.0630131	0.00636243	
306	-162.62	0.0142052	0.0117768	0.0694255	0.00636243	
307	-163.72	0.0142052	0.0117768	0.0666304	0.00636243	
308	-164.42	0.0142052	0.0117768	0.0590013	0.00636243	
309	-165.32	0.0142052	0.0117768	0.063605	0.00636243	
310	-166.02	0.0142052	0.0117768	0.0662686	0.00636243	
311	-167.12	0.0142052	0.0117768	0.0694255	0.00636243	
312	-167.82	0.0142052	0.0117768	0.063901	0.00636243	
313	-168.82	0.0142052	0.0117768	0.0667619	0.00636243	
314	-169.72	0.0142052	0.0117768	0.0616978	0.00636243	
315	-170.32	0.0142052	0.0117768	0.0626843	0.00636243	
316	-171.22	0.0142052	0.0117768	0.0594288	0.00636243	
317	-172.52	0.0142052	0.0117768	0.0592644	0.00636243	
318	-173.22	0.0142052	0.0117768	0.0650191	0.00636243	
319	-174.12	0.0142052	0.0117768	0.0661371	0.00636243	
320	-174.62	0.0142052	0.0117768	0.0618293	0.00636243	
321	-175.62	0.0142052	0.0117768	0.062191	0.00636243	
322	-176.62	0.0142052	0.0117768	0.0596919	0.00636243	
323	-177.72	0.0142052	0.0117768	0.0596261	0.00636243	
324	-178.52	0.0142052	0.0117768	0.0663344	0.00636243	
325	-179.52	0.0142052	0.0117768	0.055417	0.00636243	
326	-180.32	0.0142052	0.0117768	0.0622897	0.00636243	
327	-181.52	0.0142052	0.0117768	0.0609086	0.00636243	
328	-182.52	0.0142052	0.0117768	0.0605797	0.00636243	
329	-183.72	0.0142052	0.0117768	0.0639668	0.00636243	
330	-184.72	0.0142052	0.0117768	0.0563048	0.00636243	
331	-185.82	0.0142052	0.0117768	0.0655123	0.00636243	
332	-186.52	0.0142052	0.0117768	0.0520957	0.00636243	
333	-188.02	0.0142052	0.0117768	0.0595603	0.00636243	
334	-188.82	0.0142052	0.0117768	0.0579819	0.00636243	
335	-189.72	0.0142052	0.0117768	0.0610401	0.00636243	
336	-190.82	0.0142052	0.0117768	0.0613689	0.00636243	
337	-191.62	0.0142052	0.0117768	0.0607113	0.00636243	
338	-192.32	0.0142052	0.0117768	0.060514	0.00636243	
339	-193.42	0.0142052	0.0117768	0.0583765	0.00636243	
340	-194.22	0.0142052	0.0117768	0.0591328	0.00636243	
341	-195.12	0.0142052	0.0117768	0.0584752	0.00636243	
342	-195.82	0.0142052	0.0117768	0.0590013	0.00636243	
343	-197.02	0.0142052	0.0117768	0.0527862	0.00636243	
344	-197.82	0.0142052	0.0117768	0.0579161	0.00636243	
345	-198.52	0.0142052	0.0117768	0.0497938	0.00636243	
346	-200.22	0.0142052	0.0117768	0.0590671	0.00636243	
347	-200.72	0.0142052	0.0117768	0.0616649	0.00636243	
348	-201.32	0.0142052	0.0117768	0.0549566	0.00636243	
349	-202.42	0.0142052	0.0117768	0.0550881	0.00636243	
350	-203.22	0.0142052	0.0117768	0.0570612	0.00636243	
351	-204.22	0.0142052	0.0117768	0.0592644	0.00636243	
352	-204.92	0.0142052	0.0117768	0.052293	0.00636243	
353	-206.22	0.0142052	0.0117768	0.0553512	0.00636243	
354	-206.92	0.0142052	0.0117768	0.0605468	0.00636243	
355	-207.82	0.0142052	0.0117768	0.05739	0.00636243	
356	-208.62	0.0142052	0.0117768	0.0505173	0.00636243	
357	-209.62	0.0142052	0.0117768	0.0577188	0.00636243	
358	-210.42	0.0142052	0.0117768	0.0575215	0.00636243	
359	-211.12	0.0142052	0.0117768	0.0586725	0.00636243	
360	-212.22	0.0142052	0.0117768	0.0484456	0.00636243	
361	-213.02	0.0142052	0.0117768	0.0550224	0.00636243	
362	-213.72	0.0142052	0.0117768	0.0509119	0.00636243	
363	-214.52	0.0142052	0.0117768	0.0490375	0.00636243	
364	-215.12	0.0142052	0.0117768	0.0555814	0.00636243	
365	-216.12	0.0142052	0.0117768	0.0523259	0.00636243	
366	-216.82	0.0142052	0.0117768	0.051997	0.00636243	
367	-217.82	0.0142052	0.0117768	0.0530164	0.00636243	
368	-218.32	0.0142052	0.0117768	0.0571927	0.00636243	
