# Title: Dye Laser Frequency Scan, Depressed Limit
# Note:	Dye laser frequency scan to find the depressed ionization limit. HP 214B. Short (250 ns) integration gate.
# Type:	Frequency
# Hittite Freq:	18513.1 MHz
# Hittite: Power	14 dBm
# Laser Freq:	NaN
# Laser Mod:	NaN
# Laser Mod Attn:	NaN
# MW Attn:	MAX
# Delay:	1000 ns
# MW Off:	20 ns
# Top w/o Static:	NaN
# Static:	NaN
# Static Off:	NaN
i	f	n	nb	s	sb
0	68.48	0.0412769	0.000925081	-0.00364249	-0.00972272	
1	68.38	0.0412769	0.000925081	-0.00288616	-0.00972272	
2	68.08	0.0412769	0.000925081	-0.003215	-0.00972272	
3	67.88	0.0412769	0.000925081	-0.00390556	-0.00972272	
4	67.58	0.0412769	0.000925081	-0.00696376	-0.00972272	
5	67.28	0.0412769	0.000925081	-0.00531957	-0.00972272	
6	67.18	0.0412769	0.000925081	-0.0070953	-0.00972272	
7	67.08	0.0412769	0.000925081	-0.00426728	-0.00972272	
8	66.68	0.0412769	0.000925081	-0.0050565	-0.00972272	
9	66.38	0.0412769	0.000925081	-0.00989043	-0.00972272	
10	66.08	0.0412769	0.000925081	-0.00719395	-0.00972272	
11	65.88	0.0412769	0.000925081	-0.0064705	-0.00972272	
12	65.58	0.0412769	0.000925081	-0.00666781	-0.00972272	
13	65.08	0.0412769	0.000925081	-0.00689799	-0.00972272	
14	64.78	0.0412769	0.000925081	-0.00311635	-0.00972272	
15	64.08	0.0412769	0.000925081	-0.00765432	-0.00972272	
16	63.98	0.0412769	0.000925081	-0.0034123	-0.00972272	
17	63.58	0.0412769	0.000925081	-0.00337942	-0.00972272	
18	63.08	0.0412769	0.000925081	-0.00236002	-0.00972272	
19	62.58	0.0412769	0.000925081	-0.000321218	-0.00972272	
20	61.98	0.0412769	0.000925081	-0.00630608	-0.00972272	
21	61.48	0.0412769	0.000925081	-0.00387268	-0.00972272	
22	60.78	0.0412769	0.000925081	-0.00383979	-0.00972272	
23	60.38	0.0412769	0.000925081	-0.00268886	-0.00972272	
24	59.48	0.0412769	0.000925081	-0.00571417	-0.00972272	
25	58.98	0.0412769	0.000925081	-0.011436	-0.00972272	
26	58.38	0.0412769	0.000925081	-0.0081147	-0.00972272	
27	57.78	0.0412769	0.000925081	-0.00725972	-0.00972272	
28	56.88	0.0412769	0.000925081	-0.00298481	-0.00972272	
29	55.88	0.0412769	0.000925081	-0.00564841	-0.00972272	
30	55.38	0.0412769	0.000925081	-0.00975889	-0.00972272	
31	54.08	0.0412769	0.000925081	-0.00778586	-0.00972272	
32	53.68	0.0412769	0.000925081	-0.00873949	-0.00972272	
33	52.98	0.0412769	0.000925081	-0.0064705	-0.00972272	
34	51.78	0.0412769	0.000925081	-0.00558264	-0.00972272	
35	51.58	0.0412769	0.000925081	-0.0064705	-0.00972272	
36	50.78	0.0412769	0.000925081	-0.0091341	-0.00972272	
37	49.98	0.0412769	0.000925081	-0.0054511	-0.00972272	
38	49.08	0.0412769	0.000925081	-0.00798316	-0.00972272	
39	48.48	0.0412769	0.000925081	-0.00785163	-0.00972272	
40	47.98	0.0412769	0.000925081	-0.00587859	-0.00972272	
41	46.78	0.0412769	0.000925081	-0.00758856	-0.00972272	
42	46.18	0.0412769	0.000925081	-0.00860796	-0.00972272	
43	45.38	0.0412769	0.000925081	-0.00538534	-0.00972272	
44	44.78	0.0412769	0.000925081	-0.00893679	-0.00972272	
45	43.58	0.0412769	0.000925081	-0.00788451	-0.00972272	
46	42.68	0.0412769	0.000925081	-0.00910121	-0.00972272	
47	42.18	0.0412769	0.000925081	-0.00745702	-0.00972272	
48	41.18	0.0412769	0.000925081	-0.00495785	-0.00972272	
49	40.48	0.0412769	0.000925081	-0.00673357	-0.00972272	
50	39.68	0.0412769	0.000925081	-0.00594436	-0.00972272	
51	39.08	0.0412769	0.000925081	-0.00558264	-0.00972272	
52	37.78	0.0412769	0.000925081	-0.00328077	-0.00972272	
53	37.38	0.0412769	0.000925081	-0.00268886	-0.00972272	
54	36.58	0.0412769	0.000925081	-0.00288616	-0.00972272	
55	35.98	0.0412769	0.000925081	-0.00696376	-0.00972272	
56	34.88	0.0412769	0.000925081	-0.00640474	-0.00972272	
57	34.28	0.0412769	0.000925081	-0.00666781	-0.00972272	
58	33.28	0.0412769	0.000925081	-0.00410286	-0.00972272	
59	32.78	0.0412769	0.000925081	-0.00614166	-0.00972272	
60	31.78	0.0412769	0.000925081	-0.00232713	-0.00972272	
61	30.98	0.0412769	0.000925081	-0.0042344	-0.00972272	
62	30.18	0.0412769	0.000925081	-0.00890391	-0.00972272	
63	29.08	0.0412769	0.000925081	-0.00633897	-0.00972272	
64	28.28	0.0412769	0.000925081	-0.00640474	-0.00972272	
65	27.68	0.0412769	0.000925081	-0.00291904	-0.00972272	
66	26.78	0.0412769	0.000925081	-0.00374114	-0.00972272	
67	26.28	0.0412769	0.000925081	-0.00499073	-0.00972272	
68	25.18	0.0412769	0.000925081	-0.00308346	-0.00972272	
69	24.28	0.0412769	0.000925081	-0.00222848	-0.00972272	
70	23.78	0.0412769	0.000925081	0.0030987	-0.00972272	
71	22.88	0.0412769	0.000925081	-0.00189964	-0.00972272	
72	22.28	0.0412769	0.000925081	-0.00387268	-0.00972272	
73	21.18	0.0412769	0.000925081	-5.81473E-5	-0.00972272	
74	20.78	0.0412769	0.000925081	-0.00410286	-0.00972272	
75	19.88	0.0412769	0.000925081	-0.0034123	-0.00972272	
76	19.38	0.0412769	0.000925081	-0.00469477	-0.00972272	
77	18.58	0.0412769	0.000925081	-0.00433305	-0.00972272	
78	17.98	0.0412769	0.000925081	-0.00189964	-0.00972272	
79	17.28	0.0412769	0.000925081	-0.00380691	-0.00972272	
80	16.68	0.0412769	0.000925081	-0.000386986	-0.00972272	
81	15.68	0.0412769	0.000925081	-0.00311635	-0.00972272	
82	15.18	0.0412769	0.000925081	-0.00370826	-0.00972272	
83	14.88	0.0412769	0.000925081	0.00198065	-0.00972272	
84	13.28	0.0412769	0.000925081	0.00138874	-0.00972272	
85	12.98	0.0412769	0.000925081	-0.00186676	-0.00972272	
86	12.28	0.0412769	0.000925081	-0.000156799	-0.00972272	
87	11.68	0.0412769	0.000925081	-0.00416863	-0.00972272	
88	10.68	0.0412769	0.000925081	0.000961253	-0.00972272	
89	9.38	0.0412769	0.000925081	-0.00268886	-0.00972272	
90	8.78	0.0412769	0.000925081	-0.00624032	-0.00972272	
91	8.08	0.0412769	0.000925081	-0.000584289	-0.00972272	
92	7.18	0.0412769	0.000925081	-0.00311635	-0.00972272	
93	6.68	0.0412769	0.000925081	-0.00242579	-0.00972272	
94	5.78	0.0412769	0.000925081	-0.00377403	-0.00972272	
95	5.28	0.0412769	0.000925081	-0.00130773	-0.00972272	
96	4.18	0.0412769	0.000925081	0.000731066	-0.00972272	
97	3.68	0.0412769	0.000925081	-0.00104466	-0.00972272	
98	2.78	0.0412769	0.000925081	-9.10312E-5	-0.00972272	
99	2.08	0.0412769	0.000925081	-0.00084736	-0.00972272	
100	0.58	0.0412769	0.000925081	-0.000551405	-0.00972272	
101	-0.02	0.0412769	0.000925081	0.0047429	-0.00972272	
102	-0.72	0.0412769	0.000925081	0.00411811	-0.00972272	
103	-1.72	0.0412769	0.000925081	0.00803129	-0.00972272	
104	-2.42	0.0412769	0.000925081	0.0161207	-0.00972272	
105	-3.02	0.0412769	0.000925081	0.0116814	-0.00972272	
106	-3.82	0.0412769	0.000925081	0.0208889	-0.00972272	
107	-4.52	0.0412769	0.000925081	0.0175018	-0.00972272	
108	-5.62	0.0412769	0.000925081	0.0270711	-0.00972272	
109	-6.72	0.0412769	0.000925081	0.0355222	-0.00972272	
110	-7.52	0.0412769	0.000925081	0.0346015	-0.00972272	
111	-8.22	0.0412769	0.000925081	0.0303266	-0.00972272	
112	-8.82	0.0412769	0.000925081	0.0319379	-0.00972272	
113	-9.52	0.0412769	0.000925081	0.0372322	-0.00972272	
114	-10.32	0.0412769	0.000925081	0.048314	-0.00972272	
115	-11.02	0.0412769	0.000925081	0.0417701	-0.00972272	
116	-12.02	0.0412769	0.000925081	0.0343713	-0.00972272	
117	-12.42	0.0412769	0.000925081	0.052852	-0.00972272	
118	-13.02	0.0412769	0.000925081	0.0510105	-0.00972272	
119	-17.42	0.0412769	0.000925081	0.0572585	-0.00972272	
120	-17.42	0.0412769	0.000925081	0.0708395	-0.00972272	
121	-17.92	0.0412769	0.000925081	0.0751144	-0.00972272	
122	-18.12	0.0412769	0.000925081	0.076364	-0.00972272	
123	-18.72	0.0412769	0.000925081	0.0559102	-0.00972272	
124	-18.92	0.0412769	0.000925081	0.06617	-0.00972272	
125	-19.92	0.0412769	0.000925081	0.070412	-0.00972272	
126	-20.32	0.0412769	0.000925081	0.0617307	-0.00972272	
127	-20.92	0.0412769	0.000925081	0.0612045	-0.00972272	
128	-21.72	0.0412769	0.000925081	0.0719576	-0.00972272	
129	-22.32	0.0412769	0.000925081	0.0726152	-0.00972272	
130	-23.52	0.0412769	0.000925081	0.0706751	-0.00972272	
131	-24.62	0.0412769	0.000925081	0.0644929	-0.00972272	
132	-26.32	0.0412769	0.000925081	0.0740621	-0.00972272	
133	-26.82	0.0412769	0.000925081	0.0856373	-0.00972272	
134	-27.32	0.0412769	0.000925081	0.0741608	-0.00972272	
135	-28.22	0.0412769	0.000925081	0.0858674	-0.00972272	
136	-29.52	0.0412769	0.000925081	0.0838944	-0.00972272	
137	-30.52	0.0412769	0.000925081	0.0836642	-0.00972272	
138	-31.42	0.0412769	0.000925081	0.0959299	-0.00972272	
139	-31.82	0.0412769	0.000925081	0.0841575	-0.00972272	
140	-32.82	0.0412769	0.000925081	0.0866238	-0.00972272	
141	-33.92	0.0412769	0.000925081	0.0795537	-0.00972272	
142	-34.92	0.0412769	0.000925081	0.0843877	-0.00972272	
143	-35.92	0.0412769	0.000925081	0.0905698	-0.00972272	
144	-36.72	0.0412769	0.000925081	0.0887941	-0.00972272	
145	-37.42	0.0412769	0.000925081	0.0893202	-0.00972272	
146	-38.42	0.0412769	0.000925081	0.0892216	-0.00972272	
147	-39.22	0.0412769	0.000925081	0.096193	-0.00972272	
148	-39.62	0.0412769	0.000925081	0.0918194	-0.00972272	
149	-40.92	0.0412769	0.000925081	0.0980016	-0.00972272	
150	-41.52	0.0412769	0.000925081	0.0972782	-0.00972272	
151	-42.52	0.0412769	0.000925081	0.0919838	-0.00972272	
152	-43.02	0.0412769	0.000925081	0.0887283	-0.00972272	
153	-44.02	0.0412769	0.000925081	0.0904712	-0.00972272	
154	-44.72	0.0412769	0.000925081	0.0972124	-0.00972272	
155	-45.52	0.0412769	0.000925081	0.0917537	-0.00972272	
156	-46.02	0.0412769	0.000925081	0.0908987	-0.00972272	
157	-47.22	0.0412769	0.000925081	0.0966534	-0.00972272	
158	-47.92	0.0412769	0.000925081	0.0853742	-0.00972272	
159	-48.62	0.0412769	0.000925081	0.0915564	-0.00972272	
160	-49.02	0.0412769	0.000925081	0.096193	-0.00972272	
161	-49.92	0.0412769	0.000925081	0.0988237	-0.00972272	
162	-50.82	0.0412769	0.000925081	0.104414	-0.00972272	
163	-51.62	0.0412769	0.000925081	0.0978701	-0.00972272	
164	-52.12	0.0412769	0.000925081	0.0890243	-0.00972272	
165	-53.32	0.0412769	0.000925081	0.0942857	-0.00972272	
166	-54.12	0.0412769	0.000925081	0.0993827	-0.00972272	
167	-54.82	0.0412769	0.000925081	0.091951	-0.00972272	
168	-55.52	0.0412769	0.000925081	0.0934965	-0.00972272	
169	-56.62	0.0412769	0.000925081	0.0731085	-0.00972272	
170	-57.42	0.0412769	0.000925081	0.0908987	-0.00972272	
171	-58.12	0.0412769	0.000925081	0.0929046	-0.00972272	
172	-58.92	0.0412769	0.000925081	0.102934	-0.00972272	
173	-59.62	0.0412769	0.000925081	0.0929704	-0.00972272	
174	-60.62	0.0412769	0.000925081	0.0827764	-0.00972272	
175	-61.42	0.0412769	0.000925081	0.0963245	-0.00972272	
176	-62.22	0.0412769	0.000925081	0.0903068	-0.00972272	
177	-63.02	0.0412769	0.000925081	0.0921483	-0.00972272	
178	-63.92	0.0412769	0.000925081	0.0893202	-0.00972272	
179	-64.42	0.0412769	0.000925081	0.088827	-0.00972272	
180	-65.42	0.0412769	0.000925081	0.0916221	-0.00972272	
181	-66.32	0.0412769	0.000925081	0.0938582	-0.00972272	
182	-67.12	0.0412769	0.000925081	0.0853742	-0.00972272	
183	-68.12	0.0412769	0.000925081	0.0903068	-0.00972272	
184	-68.82	0.0412769	0.000925081	0.091096	-0.00972272	
185	-69.72	0.0412769	0.000925081	0.11132	-0.00972272	
186	-70.52	0.0412769	0.000925081	0.0868868	-0.00972272	
187	-71.32	0.0412769	0.000925081	0.0979358	-0.00972272	
188	-72.22	0.0412769	0.000925081	0.102507	-0.00972272	
189	-73.02	0.0412769	0.000925081	0.0945159	-0.00972272	
190	-74.32	0.0412769	0.000925081	0.0898793	-0.00972272	
191	-75.12	0.0412769	0.000925081	0.0960614	-0.00972272	
192	-75.72	0.0412769	0.000925081	0.0954695	-0.00972272	
193	-76.42	0.0412769	0.000925081	0.0962259	-0.00972272	
194	-77.12	0.0412769	0.000925081	0.0982647	-0.00972272	
195	-77.92	0.0412769	0.000925081	0.0915564	-0.00972272	
196	-78.92	0.0412769	0.000925081	0.0867882	-0.00972272	
197	-79.52	0.0412769	0.000925081	0.0870184	-0.00972272	
198	-80.22	0.0412769	0.000925081	0.0971137	-0.00972272	
199	-80.82	0.0412769	0.000925081	0.0924113	-0.00972272	
200	-81.92	0.0412769	0.000925081	0.0986922	-0.00972272	
201	-82.62	0.0412769	0.000925081	0.0927731	-0.00972272	
202	-83.22	0.0412769	0.000925081	0.0898135	-0.00972272	
203	-84.12	0.0412769	0.000925081	0.0987579	-0.00972272	
204	-84.72	0.0412769	0.000925081	0.0891229	-0.00972272	
205	-85.52	0.0412769	0.000925081	0.0867882	-0.00972272	
206	-86.02	0.0412769	0.000925081	0.0897806	-0.00972272	
207	-86.52	0.0412769	0.000925081	0.100731	-0.00972272	
208	-87.62	0.0412769	0.000925081	0.087972	-0.00972272	
209	-88.22	0.0412769	0.000925081	0.0937267	-0.00972272	
210	-89.12	0.0412769	0.000925081	0.0973768	-0.00972272	
211	-89.82	0.0412769	0.000925081	0.0930361	-0.00972272	
212	-90.62	0.0412769	0.000925081	0.0883995	-0.00972272	
213	-91.62	0.0412769	0.000925081	0.0860319	-0.00972272	
214	-92.42	0.0412769	0.000925081	0.0975412	-0.00972272	
215	-93.12	0.0412769	0.000925081	0.0932334	-0.00972272	
216	-94.02	0.0412769	0.000925081	0.0945817	-0.00972272	
217	-94.52	0.0412769	0.000925081	0.0931677	-0.00972272	
218	-95.42	0.0412769	0.000925081	0.0814281	-0.00972272	
219	-95.82	0.0412769	0.000925081	0.0996458	-0.00972272	
220	-96.92	0.0412769	0.000925081	0.0975412	-0.00972272	
221	-97.32	0.0412769	0.000925081	0.0919838	-0.00972272	
222	-98.72	0.0412769	0.000925081	0.0915235	-0.00972272	
223	-99.22	0.0412769	0.000925081	0.084585	-0.00972272	
224	-100.22	0.0412769	0.000925081	0.0841904	-0.00972272	
225	-100.92	0.0412769	0.000925081	0.089682	-0.00972272	
226	-102.02	0.0412769	0.000925081	0.0919838	-0.00972272	
227	-103.02	0.0412769	0.000925081	0.0870184	-0.00972272	
228	-103.92	0.0412769	0.000925081	0.0840259	-0.00972272	
229	-105.12	0.0412769	0.000925081	0.100172	-0.00972272	
230	-105.92	0.0412769	0.000925081	0.0777122	-0.00972272	
231	-106.72	0.0412769	0.000925081	0.0900437	-0.00972272	
232	-108.12	0.0412769	0.000925081	0.104414	-0.00972272	
233	-109.12	0.0412769	0.000925081	0.091096	-0.00972272	
234	-109.92	0.0412769	0.000925081	0.0922798	-0.00972272	
235	-111.42	0.0412769	0.000925081	0.0887283	-0.00972272	
236	-112.02	0.0412769	0.000925081	0.0815925	-0.00972272	
237	-113.02	0.0412769	0.000925081	0.0806718	-0.00972272	
238	-113.82	0.0412769	0.000925081	0.0855057	-0.00972272	
239	-114.52	0.0412769	0.000925081	0.0937596	-0.00972272	
240	-115.52	0.0412769	0.000925081	0.0841246	-0.00972272	
241	-116.22	0.0412769	0.000925081	0.0781726	-0.00972272	
242	-117.22	0.0412769	0.000925081	0.0814281	-0.00972272	
243	-118.12	0.0412769	0.000925081	0.0855386	-0.00972272	
244	-118.92	0.0412769	0.000925081	0.0882351	-0.00972272	
245	-119.62	0.0412769	0.000925081	0.0994814	-0.00972272	
246	-120.72	0.0412769	0.000925081	0.106683	-0.00972272	
247	-121.42	0.0412769	0.000925081	0.100435	-0.00972272	
248	-122.02	0.0412769	0.000925081	0.0863607	-0.00972272	
249	-123.02	0.0412769	0.000925081	0.0938582	-0.00972272	
250	-124.02	0.0412769	0.000925081	0.0978043	-0.00972272	
251	-124.92	0.0412769	0.000925081	0.095897	-0.00972272	
252	-125.62	0.0412769	0.000925081	0.0941213	-0.00972272	
253	-126.72	0.0412769	0.000925081	0.0885968	-0.00972272	
254	-127.42	0.0412769	0.000925081	0.0995471	-0.00972272	
255	-128.12	0.0412769	0.000925081	0.0997116	-0.00972272	
256	-129.02	0.0412769	0.000925081	0.0894189	-0.00972272	
257	-129.92	0.0412769	0.000925081	0.0807704	-0.00972272	
258	-130.92	0.0412769	0.000925081	0.0850125	-0.00972272	
259	-131.62	0.0412769	0.000925081	0.0960614	-0.00972272	
260	-132.62	0.0412769	0.000925081	0.0832367	-0.00972272	
261	-133.22	0.0412769	0.000925081	0.0864593	-0.00972272	
262	-134.52	0.0412769	0.000925081	0.0812308	-0.00972272	
263	-135.52	0.0412769	0.000925081	0.0847165	-0.00972272	
264	-136.52	0.0412769	0.000925081	0.0785672	-0.00972272	
265	-136.92	0.0412769	0.000925081	0.0896491	-0.00972272	
266	-137.72	0.0412769	0.000925081	0.091359	-0.00972272	
267	-138.72	0.0412769	0.000925081	0.0855715	-0.00972272	
268	-139.62	0.0412769	0.000925081	0.0806718	-0.00972272	
269	-140.22	0.0412769	0.000925081	0.0862949	-0.00972272	
270	-141.22	0.0412769	0.000925081	0.080902	-0.00972272	
271	-142.02	0.0412769	0.000925081	0.0813952	-0.00972272	
272	-142.72	0.0412769	0.000925081	0.0851769	-0.00972272	
273	-143.32	0.0412769	0.000925081	0.0868211	-0.00972272	
274	-144.32	0.0412769	0.000925081	0.0889914	-0.00972272	
275	-144.92	0.0412769	0.000925081	0.097607	-0.00972272	
276	-145.62	0.0412769	0.000925081	0.0867224	-0.00972272	
277	-146.42	0.0412769	0.000925081	0.100139	-0.00972272	
278	-146.92	0.0412769	0.000925081	0.087117	-0.00972272	
279	-148.02	0.0412769	0.000925081	0.081757	-0.00972272	
280	-148.62	0.0412769	0.000925081	0.0915564	-0.00972272	
281	-149.42	0.0412769	0.000925081	0.0928388	-0.00972272	
282	-150.12	0.0412769	0.000925081	0.0949763	-0.00972272	
283	-150.92	0.0412769	0.000925081	0.108327	-0.00972272	
284	-151.82	0.0412769	0.000925081	0.0931348	-0.00972272	
285	-152.62	0.0412769	0.000925081	0.0900108	-0.00972272	
286	-153.32	0.0412769	0.000925081	0.102211	-0.00972272	
287	-154.32	0.0412769	0.000925081	0.0926744	-0.00972272	
288	-154.82	0.0412769	0.000925081	0.0847165	-0.00972272	
289	-155.62	0.0412769	0.000925081	0.0873143	-0.00972272	
290	-156.62	0.0412769	0.000925081	0.0849138	-0.00972272	
291	-157.22	0.0412769	0.000925081	0.079488	-0.00972272	
292	-157.92	0.0412769	0.000925081	0.091096	-0.00972272	
293	-158.92	0.0412769	0.000925081	0.0884324	-0.00972272	
294	-159.72	0.0412769	0.000925081	0.0913919	-0.00972272	
295	-160.52	0.0412769	0.000925081	0.0886297	-0.00972272	
296	-161.22	0.0412769	0.000925081	0.0854399	-0.00972272	
297	-162.02	0.0412769	0.000925081	0.101849	-0.00972272	
298	-162.92	0.0412769	0.000925081	0.09251	-0.00972272	
299	-163.62	0.0412769	0.000925081	0.0904054	-0.00972272	
300	-164.22	0.0412769	0.000925081	0.0943186	-0.00972272	
301	-165.12	0.0412769	0.000925081	0.0883337	-0.00972272	
302	-166.22	0.0412769	0.000925081	0.100895	-0.00972272	
303	-167.12	0.0412769	0.000925081	0.0926744	-0.00972272	
304	-167.62	0.0412769	0.000925081	0.0989881	-0.00972272	
305	-168.52	0.0412769	0.000925081	0.0824475	-0.00972272	
306	-169.22	0.0412769	0.000925081	0.087413	-0.00972272	
307	-170.22	0.0412769	0.000925081	0.100501	-0.00972272	
308	-170.82	0.0412769	0.000925081	0.088268	-0.00972272	
309	-171.82	0.0412769	0.000925081	0.0901423	-0.00972272	
310	-172.82	0.0412769	0.000925081	0.10004	-0.00972272	
311	-173.92	0.0412769	0.000925081	0.0881035	-0.00972272	
312	-175.02	0.0412769	0.000925081	0.095897	-0.00972272	
313	-175.92	0.0412769	0.000925081	0.097607	-0.00972272	
314	-177.12	0.0412769	0.000925081	0.084585	-0.00972272	
315	-178.02	0.0412769	0.000925081	0.0997116	-0.00972272	
316	-179.12	0.0412769	0.000925081	0.0880049	-0.00972272	
317	-180.12	0.0412769	0.000925081	0.084848	-0.00972272	
318	-180.92	0.0412769	0.000925081	0.0822502	-0.00972272	
319	-182.02	0.0412769	0.000925081	0.0861305	-0.00972272	
320	-182.82	0.0412769	0.000925081	0.0832038	-0.00972272	
321	-184.22	0.0412769	0.000925081	0.0861305	-0.00972272	
322	-184.92	0.0412769	0.000925081	0.0832696	-0.00972272	
323	-186.02	0.0412769	0.000925081	0.0871828	-0.00972272	
324	-187.02	0.0412769	0.000925081	0.0830065	-0.00972272	
325	-187.92	0.0412769	0.000925081	0.0853742	-0.00972272	
326	-188.82	0.0412769	0.000925081	0.0810664	-0.00972272	
327	-189.72	0.0412769	0.000925081	0.0941871	-0.00972272	
328	-190.52	0.0412769	0.000925081	0.0884653	-0.00972272	
329	-191.52	0.0412769	0.000925081	0.103099	-0.00972272	
330	-192.52	0.0412769	0.000925081	0.0886955	-0.00972272	
331	-193.42	0.0412769	0.000925081	0.0838944	-0.00972272	
332	-194.22	0.0412769	0.000925081	0.0885968	-0.00972272	
333	-195.72	0.0412769	0.000925081	0.0848152	-0.00972272	
334	-196.32	0.0412769	0.000925081	0.0786001	-0.00972272	
335	-197.12	0.0412769	0.000925081	0.0949105	-0.00972272	
336	-197.82	0.0412769	0.000925081	0.0980674	-0.00972272	
337	-199.02	0.0412769	0.000925081	0.0951736	-0.00972272	
338	-199.92	0.0412769	0.000925081	0.0946803	-0.00972272	
339	-200.52	0.0412769	0.000925081	0.0980016	-0.00972272	
340	-201.22	0.0412769	0.000925081	0.0825462	-0.00972272	
341	-202.32	0.0412769	0.000925081	0.0919181	-0.00972272	
342	-203.02	0.0412769	0.000925081	0.0843548	-0.00972272	
343	-204.12	0.0412769	0.000925081	0.0901095	-0.00972272	
344	-204.82	0.0412769	0.000925081	0.0892874	-0.00972272	
345	-205.82	0.0412769	0.000925081	0.0831052	-0.00972272	
346	-206.72	0.0412769	0.000925081	0.0813295	-0.00972272	
347	-207.72	0.0412769	0.000925081	0.0842561	-0.00972272	
348	-208.52	0.0412769	0.000925081	0.0987579	-0.00972272	
