# Title: Dye Laser Frequency Scan, Depressed Limit
# Note:	Dye laser frequency scan to find the depressed ionization limit. SFIP with 150 VDC. Short (500 ns) integration gate. Started by using diode laser and Stark Broadening of 27f.
# Type:	Frequency
# Hittite Freq:	NaN
# Hittite: Power	NaN
# Laser Freq:	NaN
# Laser Mod:	NaN
# Laser Mod Attn:	NaN
# MW Attn:	MAX
# Delay:	1000 ns
# MW Off:	NaN
# Top w/o Static:	NaN
# Static:	NaN
# Static Off:	NaN
i	f	n	nb	s	sb
0	85.28	-0.0564869	-0.0566053	0.00152028	0.000398939	
1	85.18	-0.0564869	-0.0566053	0.00234238	0.000398939	
2	84.98	-0.0564869	-0.0566053	0.000270691	0.000398939	
3	84.68	-0.0564869	-0.0566053	4.05043E-5	0.000398939	
4	84.38	-0.0564869	-0.0566053	0.00234238	0.000398939	
5	84.08	-0.0564869	-0.0566053	0.000731066	0.000398939	
6	83.88	-0.0564869	-0.0566053	0.00148739	0.000398939	
7	83.88	-0.0564869	-0.0566053	0.000402227	0.000398939	
8	83.58	-0.0564869	-0.0566053	0.000270691	0.000398939	
9	83.38	-0.0564869	-0.0566053	-0.000386986	0.000398939	
10	83.08	-0.0564869	-0.0566053	0.00313159	0.000398939	
11	82.58	-0.0564869	-0.0566053	-0.000156799	0.000398939	
12	82.38	-0.0564869	-0.0566053	-0.00236002	0.000398939	
13	82.08	-0.0564869	-0.0566053	0.00145451	0.000398939	
14	81.68	-0.0564869	-0.0566053	0.000632414	0.000398939	
15	81.38	-0.0564869	-0.0566053	0.000895485	0.000398939	
16	80.98	-0.0564869	-0.0566053	0.000928369	0.000398939	
17	80.58	-0.0564869	-0.0566053	-0.000189683	0.000398939	
18	80.18	-0.0564869	-0.0566053	0.0010599	0.000398939	
19	79.58	-0.0564869	-0.0566053	0.000796834	0.000398939	
20	78.88	-0.0564869	-0.0566053	0.00175047	0.000398939	
21	78.48	-0.0564869	-0.0566053	0.00125721	0.000398939	
22	78.18	-0.0564869	-0.0566053	0.000402227	0.000398939	
23	77.68	-0.0564869	-0.0566053	0.00346043	0.000398939	
24	77.08	-0.0564869	-0.0566053	0.00224372	0.000398939	
25	76.28	-0.0564869	-0.0566053	0.00503885	0.000398939	
26	75.78	-0.0564869	-0.0566053	0.00342754	0.000398939	
27	75.38	-0.0564869	-0.0566053	0.00257256	0.000398939	
28	74.88	-0.0564869	-0.0566053	0.00401945	0.000398939	
29	74.48	-0.0564869	-0.0566053	0.00138874	0.000398939	
30	73.78	-0.0564869	-0.0566053	0.00510462	0.000398939	
31	73.08	-0.0564869	-0.0566053	0.000698182	0.000398939	
32	72.48	-0.0564869	-0.0566053	0.00382215	0.000398939	
33	71.38	-0.0564869	-0.0566053	0.00467713	0.000398939	
34	70.78	-0.0564869	-0.0566053	0.00513751	0.000398939	
35	70.28	-0.0564869	-0.0566053	0.00313159	0.000398939	
36	69.58	-0.0564869	-0.0566053	0.00572942	0.000398939	
37	68.88	-0.0564869	-0.0566053	0.00378927	0.000398939	
38	68.08	-0.0564869	-0.0566053	0.00510462	0.000398939	
39	67.48	-0.0564869	-0.0566053	0.00645286	0.000398939	
40	66.48	-0.0564869	-0.0566053	0.00783398	0.000398939	
41	66.18	-0.0564869	-0.0566053	0.000402227	0.000398939	
42	62.98	-0.0564869	-0.0566053	0.00273698	0.000398939	
43	62.98	-0.0564869	-0.0566053	0.00211219	0.000398939	
44	62.38	-0.0564869	-0.0566053	0.00319736	0.000398939	
45	58.78	-0.0564869	-0.0566053	-0.000354102	0.000398939	
46	58.68	-0.0564869	-0.0566053	-0.00206406	0.000398939	
47	57.98	-0.0564869	-0.0566053	0.00076395	0.000398939	
48	57.98	-0.0564869	-0.0566053	-0.00351095	0.000398939	
49	57.58	-0.0564869	-0.0566053	0.000336459	0.000398939	
50	56.88	-0.0564869	-0.0566053	-0.000485638	0.000398939	
51	57.08	-0.0564869	-0.0566053	0.00477578	0.000398939	
52	56.78	-0.0564869	-0.0566053	-0.00150504	0.000398939	
53	56.38	-0.0564869	-0.0566053	0.000632414	0.000398939	
54	56.08	-0.0564869	-0.0566053	-0.000156799	0.000398939	
55	55.88	-0.0564869	-0.0566053	-0.000715825	0.000398939	
56	55.68	-0.0564869	-0.0566053	0.000796834	0.000398939	
57	55.18	-0.0564869	-0.0566053	0.000829717	0.000398939	
58	54.68	-0.0564869	-0.0566053	0.00198065	0.000398939	
59	54.08	-0.0564869	-0.0566053	-0.000715825	0.000398939	
60	53.98	-0.0564869	-0.0566053	-0.000650057	0.000398939	
61	53.38	-0.0564869	-0.0566053	0.000336459	0.000398939	
62	53.28	-0.0564869	-0.0566053	0.000237808	0.000398939	
63	52.38	-0.0564869	-0.0566053	-0.00143927	0.000398939	
64	51.88	-0.0564869	-0.0566053	-0.00101178	0.000398939	
65	51.18	-0.0564869	-0.0566053	0.000106272	0.000398939	
66	50.78	-0.0564869	-0.0566053	-0.000617173	0.000398939	
67	50.28	-0.0564869	-0.0566053	-0.00153792	0.000398939	
68	49.38	-0.0564869	-0.0566053	0.000566646	0.000398939	
69	48.48	-0.0564869	-0.0566053	0.00257256	0.000398939	
70	47.78	-0.0564869	-0.0566053	0.00119144	0.000398939	
71	47.28	-0.0564869	-0.0566053	0.00253968	0.000398939	
72	46.28	-0.0564869	-0.0566053	-0.000321218	0.000398939	
73	45.38	-0.0564869	-0.0566053	-0.000189683	0.000398939	
74	44.48	-0.0564869	-0.0566053	0.00017204	0.000398939	
75	43.98	-0.0564869	-0.0566053	0.00240814	0.000398939	
76	42.98	-0.0564869	-0.0566053	4.05043E-5	0.000398939	
77	42.08	-0.0564869	-0.0566053	-0.0021956	0.000398939	
78	41.18	-0.0564869	-0.0566053	0.000928369	0.000398939	
79	40.38	-0.0564869	-0.0566053	0.000731066	0.000398939	
80	39.38	-0.0564869	-0.0566053	-0.00147215	0.000398939	
81	38.88	-0.0564869	-0.0566053	0.00175047	0.000398939	
82	37.98	-0.0564869	-0.0566053	0.00385503	0.000398939	
83	37.18	-0.0564869	-0.0566053	0.00253968	0.000398939	
84	36.18	-0.0564869	-0.0566053	0.00355908	0.000398939	
85	35.48	-0.0564869	-0.0566053	-0.00295193	0.000398939	
86	34.68	-0.0564869	-0.0566053	-0.00120908	0.000398939	
87	33.38	-0.0564869	-0.0566053	-0.00209695	0.000398939	
88	32.88	-0.0564869	-0.0566053	0.00076395	0.000398939	
89	31.98	-0.0564869	-0.0566053	-0.000551405	0.000398939	
90	31.38	-0.0564869	-0.0566053	-0.000354102	0.000398939	
91	30.58	-0.0564869	-0.0566053	7.62044E-6	0.000398939	
92	29.68	-0.0564869	-0.0566053	-0.000781593	0.000398939	
93	29.08	-0.0564869	-0.0566053	0.00230949	0.000398939	
94	28.18	-0.0564869	-0.0566053	-0.00140639	0.000398939	
95	27.48	-0.0564869	-0.0566053	-0.00041987	0.000398939	
96	26.58	-0.0564869	-0.0566053	-0.0021956	0.000398939	
97	25.98	-0.0564869	-0.0566053	-0.000222567	0.000398939	
98	25.08	-0.0564869	-0.0566053	-0.00265597	0.000398939	
99	24.88	-0.0564869	-0.0566053	-0.00166946	0.000398939	
100	23.68	-0.0564869	-0.0566053	-0.00393844	0.000398939	
101	22.98	-0.0564869	-0.0566053	-0.00232713	0.000398939	
102	22.38	-0.0564869	-0.0566053	-0.00157081	0.000398939	
103	21.48	-0.0564869	-0.0566053	-0.00272174	0.000398939	
104	20.78	-0.0564869	-0.0566053	-0.0062732	0.000398939	
105	20.18	-0.0564869	-0.0566053	-0.00203118	0.000398939	
106	19.38	-0.0564869	-0.0566053	7.62044E-6	0.000398939	
107	18.68	-0.0564869	-0.0566053	-0.00571417	0.000398939	
108	17.78	-0.0564869	-0.0566053	-0.000222567	0.000398939	
109	17.18	-0.0564869	-0.0566053	-0.00387268	0.000398939	
110	16.28	-0.0564869	-0.0566053	-0.00242579	0.000398939	
111	15.38	-0.0564869	-0.0566053	-0.00291904	0.000398939	
112	14.48	-0.0564869	-0.0566053	0.00017204	0.000398939	
113	14.08	-0.0564869	-0.0566053	-0.00124197	0.000398939	
114	13.18	-0.0564869	-0.0566053	0.00142163	0.000398939	
115	12.08	-0.0564869	-0.0566053	0.000533762	0.000398939	
116	11.38	-0.0564869	-0.0566053	-0.00245867	0.000398939	
117	10.98	-0.0564869	-0.0566053	0.00115856	0.000398939	
118	9.98	-0.0564869	-0.0566053	-0.000485638	0.000398939	
119	8.98	-0.0564869	-0.0566053	0.00355908	0.000398939	
120	8.08	-0.0564869	-0.0566053	0.000796834	0.000398939	
121	7.28	-0.0564869	-0.0566053	0.00378927	0.000398939	
122	6.78	-0.0564869	-0.0566053	0.000862601	0.000398939	
123	5.68	-0.0564869	-0.0566053	0.000303575	0.000398939	
124	4.98	-0.0564869	-0.0566053	-0.00406998	0.000398939	
125	3.98	-0.0564869	-0.0566053	-0.0034123	0.000398939	
126	3.18	-0.0564869	-0.0566053	0.00204642	0.000398939	
127	2.18	-0.0564869	-0.0566053	-0.00163657	0.000398939	
128	1.48	-0.0564869	-0.0566053	4.05043E-5	0.000398939	
129	0.38	-0.0564869	-0.0566053	0.00211219	0.000398939	
130	-0.52	-0.0564869	-0.0566053	0.00155316	0.000398939	
131	-1.42	-0.0564869	-0.0566053	0.00059953	0.000398939	
132	-2.02	-0.0564869	-0.0566053	-0.00374114	0.000398939	
133	-3.12	-0.0564869	-0.0566053	-0.00212983	0.000398939	
134	-3.82	-0.0564869	-0.0566053	0.00273698	0.000398939	
135	-4.82	-0.0564869	-0.0566053	0.00161893	0.000398939	
136	-5.32	-0.0564869	-0.0566053	-0.000485638	0.000398939	
137	-6.12	-0.0564869	-0.0566053	0.000566646	0.000398939	
138	-6.92	-0.0564869	-0.0566053	0.00234238	0.000398939	
139	-7.62	-0.0564869	-0.0566053	-0.000156799	0.000398939	
140	-8.52	-0.0564869	-0.0566053	0.00234238	0.000398939	
141	-9.32	-0.0564869	-0.0566053	-0.00127485	0.000398939	
142	-9.82	-0.0564869	-0.0566053	-0.000584289	0.000398939	
143	-10.52	-0.0564869	-0.0566053	-0.00206406	0.000398939	
144	-11.22	-0.0564869	-0.0566053	0.000467995	0.000398939	
145	-12.22	-0.0564869	-0.0566053	0.00059953	0.000398939	
146	-13.32	-0.0564869	-0.0566053	-0.00216272	0.000398939	
147	-13.92	-0.0564869	-0.0566053	-0.000913128	0.000398939	
148	-14.82	-0.0564869	-0.0566053	-0.0034123	0.000398939	
149	-19.82	-0.0564869	-0.0566053	-0.00120908	0.000398939	
150	-19.62	-0.0564869	-0.0566053	0.000467995	0.000398939	
151	-20.32	-0.0564869	-0.0566053	-0.00130773	0.000398939	
152	-20.62	-0.0564869	-0.0566053	0.000731066	0.000398939	
153	-21.22	-0.0564869	-0.0566053	0.000829717	0.000398939	
154	-21.32	-0.0564869	-0.0566053	-0.000946012	0.000398939	
155	-22.22	-0.0564869	-0.0566053	-0.00176811	0.000398939	
156	-22.82	-0.0564869	-0.0566053	-0.00209695	0.000398939	
157	-23.42	-0.0564869	-0.0566053	-0.000682941	0.000398939	
158	-24.02	-0.0564869	-0.0566053	0.00224372	0.000398939	
159	-24.92	-0.0564869	-0.0566053	-0.00189964	0.000398939	
160	-25.52	-0.0564869	-0.0566053	4.05043E-5	0.000398939	
161	-26.42	-0.0564869	-0.0566053	-0.00084736	0.000398939	
162	-27.12	-0.0564869	-0.0566053	-0.000650057	0.000398939	
163	-27.82	-0.0564869	-0.0566053	-0.000452754	0.000398939	
164	-28.92	-0.0564869	-0.0566053	-9.10312E-5	0.000398939	
165	-29.62	-0.0564869	-0.0566053	-0.00209695	0.000398939	
166	-30.82	-0.0564869	-0.0566053	0.00181623	0.000398939	
167	-31.42	-0.0564869	-0.0566053	0.00125721	0.000398939	
168	-32.42	-0.0564869	-0.0566053	-0.000222567	0.000398939	
169	-33.32	-0.0564869	-0.0566053	0.000237808	0.000398939	
170	-34.32	-0.0564869	-0.0566053	0.00129009	0.000398939	
171	-35.02	-0.0564869	-0.0566053	-0.00318212	0.000398939	
172	-35.82	-0.0564869	-0.0566053	0.000336459	0.000398939	
173	-36.92	-0.0564869	-0.0566053	-0.00160369	0.000398939	
174	-37.52	-0.0564869	-0.0566053	-0.000123915	0.000398939	
175	-38.42	-0.0564869	-0.0566053	0.00230949	0.000398939	
176	-39.02	-0.0564869	-0.0566053	-0.00107755	0.000398939	
177	-40.22	-0.0564869	-0.0566053	0.00125721	0.000398939	
178	-40.82	-0.0564869	-0.0566053	0.000467995	0.000398939	
179	-41.92	-0.0564869	-0.0566053	0.00306582	0.000398939	
180	-42.42	-0.0564869	-0.0566053	0.00589383	0.000398939	
181	-42.72	-0.0564869	-0.0566053	0.00267121	0.000398939	
182	-43.82	-0.0564869	-0.0566053	0.000796834	0.000398939	
183	-44.52	-0.0564869	-0.0566053	0.00286852	0.000398939	
184	-45.52	-0.0564869	-0.0566053	0.00161893	0.000398939	
185	-46.32	-0.0564869	-0.0566053	0.00165181	0.000398939	
186	-47.22	-0.0564869	-0.0566053	0.00319736	0.000398939	
187	-47.92	-0.0564869	-0.0566053	0.005565	0.000398939	
188	-49.02	-0.0564869	-0.0566053	0.00464425	0.000398939	
189	-49.52	-0.0564869	-0.0566053	0.00273698	0.000398939	
190	-50.32	-0.0564869	-0.0566053	0.00300005	0.000398939	
191	-51.02	-0.0564869	-0.0566053	0.00434829	0.000398939	
192	-52.42	-0.0564869	-0.0566053	0.00388792	0.000398939	
193	-53.22	-0.0564869	-0.0566053	0.0030987	0.000398939	
194	-53.72	-0.0564869	-0.0566053	0.00467713	0.000398939	
195	-55.02	-0.0564869	-0.0566053	0.00461136	0.000398939	
196	-55.62	-0.0564869	-0.0566053	0.00671593	0.000398939	
197	-56.42	-0.0564869	-0.0566053	0.00553211	0.000398939	
198	-57.22	-0.0564869	-0.0566053	0.00543346	0.000398939	
199	-57.92	-0.0564869	-0.0566053	0.0102345	0.000398939	
200	-58.82	-0.0564869	-0.0566053	0.00937953	0.000398939	
201	-59.62	-0.0564869	-0.0566053	0.0101359	0.000398939	
202	-60.52	-0.0564869	-0.0566053	0.0108922	0.000398939	
203	-61.32	-0.0564869	-0.0566053	0.0112539	0.000398939	
204	-62.22	-0.0564869	-0.0566053	0.0139504	0.000398939	
205	-63.12	-0.0564869	-0.0566053	0.00859031	0.000398939	
206	-64.12	-0.0564869	-0.0566053	0.0132598	0.000398939	
207	-64.82	-0.0564869	-0.0566053	0.018028	0.000398939	
208	-65.72	-0.0564869	-0.0566053	0.0180938	0.000398939	
209	-66.52	-0.0564869	-0.0566053	0.0172059	0.000398939	
210	-67.62	-0.0564869	-0.0566053	0.0193105	0.000398939	
211	-68.22	-0.0564869	-0.0566053	0.0190474	0.000398939	
212	-69.32	-0.0564869	-0.0566053	0.0234538	0.000398939	
213	-70.02	-0.0564869	-0.0566053	0.0266436	0.000398939	
214	-70.72	-0.0564869	-0.0566053	0.0267751	0.000398939	
215	-71.62	-0.0564869	-0.0566053	0.0284522	0.000398939	
216	-72.22	-0.0564869	-0.0566053	0.0300306	0.000398939	
217	-73.12	-0.0564869	-0.0566053	0.0298991	0.000398939	
218	-73.82	-0.0564869	-0.0566053	0.0303266	0.000398939	
219	-74.82	-0.0564869	-0.0566053	0.0368704	0.000398939	
220	-75.62	-0.0564869	-0.0566053	0.0368376	0.000398939	
221	-76.42	-0.0564869	-0.0566053	0.0340424	0.000398939	
222	-77.12	-0.0564869	-0.0566053	0.0402575	0.000398939	
223	-77.72	-0.0564869	-0.0566053	0.0382845	0.000398939	
224	-78.62	-0.0564869	-0.0566053	0.0398958	0.000398939	
225	-79.22	-0.0564869	-0.0566053	0.0438418	0.000398939	
226	-80.22	-0.0564869	-0.0566053	0.0421976	0.000398939	
227	-80.62	-0.0564869	-0.0566053	0.0413427	0.000398939	
228	-81.82	-0.0564869	-0.0566053	0.0477879	0.000398939	
229	-82.42	-0.0564869	-0.0566053	0.0466041	0.000398939	
230	-83.02	-0.0564869	-0.0566053	0.0507146	0.000398939	
231	-83.82	-0.0564869	-0.0566053	0.0487415	0.000398939	
232	-84.52	-0.0564869	-0.0566053	0.050583	0.000398939	
233	-85.52	-0.0564869	-0.0566053	0.0523916	0.000398939	
234	-86.62	-0.0564869	-0.0566053	0.0581134	0.000398939	
235	-87.12	-0.0564869	-0.0566053	0.0560746	0.000398939	
236	-87.82	-0.0564869	-0.0566053	0.0520299	0.000398939	
237	-88.92	-0.0564869	-0.0566053	0.0571598	0.000398939	
238	-89.52	-0.0564869	-0.0566053	0.0592973	0.000398939	
239	-90.32	-0.0564869	-0.0566053	0.0664331	0.000398939	
240	-90.82	-0.0564869	-0.0566053	0.0624541	0.000398939	
241	-92.02	-0.0564869	-0.0566053	0.0632104	0.000398939	
242	-92.92	-0.0564869	-0.0566053	0.0634077	0.000398939	
243	-93.52	-0.0564869	-0.0566053	0.0646902	0.000398939	
244	-94.62	-0.0564869	-0.0566053	0.0650848	0.000398939	
245	-95.22	-0.0564869	-0.0566053	0.0573571	0.000398939	
246	-96.02	-0.0564869	-0.0566053	0.0596261	0.000398939	
247	-96.72	-0.0564869	-0.0566053	0.0629474	0.000398939	
248	-97.72	-0.0564869	-0.0566053	0.0637695	0.000398939	
249	-98.62	-0.0564869	-0.0566053	0.0686034	0.000398939	
250	-99.32	-0.0564869	-0.0566053	0.0624212	0.000398939	
251	-100.22	-0.0564869	-0.0566053	0.0628487	0.000398939	
252	-101.12	-0.0564869	-0.0566053	0.0691953	0.000398939	
253	-101.82	-0.0564869	-0.0566053	0.0664002	0.000398939	
254	-102.82	-0.0564869	-0.0566053	0.0669592	0.000398939	
255	-103.72	-0.0564869	-0.0566053	0.0672223	0.000398939	
256	-104.52	-0.0564869	-0.0566053	0.0680444	0.000398939	
257	-105.32	-0.0564869	-0.0566053	0.0660385	0.000398939	
258	-106.92	-0.0564869	-0.0566053	0.0633749	0.000398939	
259	-107.32	-0.0564869	-0.0566053	0.0672552	0.000398939	
260	-108.02	-0.0564869	-0.0566053	0.0635064	0.000398939	
261	-109.22	-0.0564869	-0.0566053	0.0664988	0.000398939	
262	-109.92	-0.0564869	-0.0566053	0.0623883	0.000398939	
263	-110.82	-0.0564869	-0.0566053	0.0622897	0.000398939	
264	-111.52	-0.0564869	-0.0566053	0.0679457	0.000398939	
265	-112.62	-0.0564869	-0.0566053	0.0686363	0.000398939	
266	-113.22	-0.0564869	-0.0566053	0.0717931	0.000398939	
267	-114.22	-0.0564869	-0.0566053	0.0633749	0.000398939	
268	-114.92	-0.0564869	-0.0566053	0.0676498	0.000398939	
269	-115.92	-0.0564869	-0.0566053	0.0681101	0.000398939	
270	-116.92	-0.0564869	-0.0566053	0.0718589	0.000398939	
271	-118.32	-0.0564869	-0.0566053	0.0701161	0.000398939	
272	-118.82	-0.0564869	-0.0566053	0.0701161	0.000398939	
273	-119.72	-0.0564869	-0.0566053	0.0668934	0.000398939	
274	-120.62	-0.0564869	-0.0566053	0.0672223	0.000398939	
275	-121.52	-0.0564869	-0.0566053	0.0712999	0.000398939	
276	-121.92	-0.0564869	-0.0566053	0.0661371	0.000398939	
277	-127.82	-0.0564869	-0.0566053	0.069853	0.000398939	
278	-127.92	-0.0564869	-0.0566053	0.0686363	0.000398939	
279	-128.32	-0.0564869	-0.0566053	0.0667619	0.000398939	
280	-128.62	-0.0564869	-0.0566053	0.0676826	0.000398939	
281	-129.12	-0.0564869	-0.0566053	0.0660385	0.000398939	
282	-129.52	-0.0564869	-0.0566053	0.0658083	0.000398939	
283	-130.32	-0.0564869	-0.0566053	0.0655781	0.000398939	
284	-130.72	-0.0564869	-0.0566053	0.0680115	0.000398939	
285	-131.62	-0.0564869	-0.0566053	0.0676169	0.000398939	
286	-132.22	-0.0564869	-0.0566053	0.0654794	0.000398939	
287	-132.82	-0.0564869	-0.0566053	0.0667619	0.000398939	
288	-133.82	-0.0564869	-0.0566053	0.068998	0.000398939	
289	-134.52	-0.0564869	-0.0566053	0.0720233	0.000398939	
290	-135.42	-0.0564869	-0.0566053	0.0672552	0.000398939	
291	-136.42	-0.0564869	-0.0566053	0.0668277	0.000398939	
292	-137.02	-0.0564869	-0.0566053	0.0629474	0.000398939	
293	-137.82	-0.0564869	-0.0566053	0.0650848	0.000398939	
294	-138.52	-0.0564869	-0.0566053	0.0700174	0.000398939	
295	-139.42	-0.0564869	-0.0566053	0.0714314	0.000398939	
296	-140.22	-0.0564869	-0.0566053	0.0654794	0.000398939	
297	-140.92	-0.0564869	-0.0566053	0.0679457	0.000398939	
298	-141.72	-0.0564869	-0.0566053	0.0652164	0.000398939	
299	-142.52	-0.0564869	-0.0566053	0.0648875	0.000398939	
300	-143.32	-0.0564869	-0.0566053	0.0665317	0.000398939	
301	-144.12	-0.0564869	-0.0566053	0.0667619	0.000398939	
302	-144.72	-0.0564869	-0.0566053	0.0615662	0.000398939	
303	-145.52	-0.0564869	-0.0566053	0.0682088	0.000398939	
304	-146.42	-0.0564869	-0.0566053	0.0656767	0.000398939	
305	-147.02	-0.0564869	-0.0566053	0.0649862	0.000398939	
306	-148.02	-0.0564869	-0.0566053	0.0620266	0.000398939	
307	-148.92	-0.0564869	-0.0566053	0.061928	0.000398939	
308	-149.42	-0.0564869	-0.0566053	0.0649862	0.000398939	
309	-150.22	-0.0564869	-0.0566053	0.0665646	0.000398939	
310	-151.12	-0.0564869	-0.0566053	0.0727797	0.000398939	
311	-152.02	-0.0564869	-0.0566053	0.0598234	0.000398939	
312	-153.02	-0.0564869	-0.0566053	0.065611	0.000398939	
313	-153.72	-0.0564869	-0.0566053	0.0666304	0.000398939	
314	-155.02	-0.0564869	-0.0566053	0.0630131	0.000398939	
315	-155.62	-0.0564869	-0.0566053	0.0662029	0.000398939	
316	-156.52	-0.0564869	-0.0566053	0.0626843	0.000398939	
317	-157.12	-0.0564869	-0.0566053	0.0641641	0.000398939	
318	-158.12	-0.0564869	-0.0566053	0.0588698	0.000398939	
319	-159.12	-0.0564869	-0.0566053	0.0651177	0.000398939	
320	-159.82	-0.0564869	-0.0566053	0.0574229	0.000398939	
321	-160.82	-0.0564869	-0.0566053	0.0592973	0.000398939	
322	-161.62	-0.0564869	-0.0566053	0.0649204	0.000398939	
323	-162.52	-0.0564869	-0.0566053	0.0625856	0.000398939	
324	-163.42	-0.0564869	-0.0566053	0.0594946	0.000398939	
325	-164.52	-0.0564869	-0.0566053	0.0641641	0.000398939	
326	-165.62	-0.0564869	-0.0566053	0.0574229	0.000398939	
327	-166.12	-0.0564869	-0.0566053	0.0633749	0.000398939	
328	-167.32	-0.0564869	-0.0566053	0.063342	0.000398939	
329	-168.12	-0.0564869	-0.0566053	0.0649862	0.000398939	
330	-168.72	-0.0564869	-0.0566053	0.0629145	0.000398939	
331	-169.42	-0.0564869	-0.0566053	0.0636379	0.000398939	
332	-170.82	-0.0564869	-0.0566053	0.06788	0.000398939	
333	-171.42	-0.0564869	-0.0566053	0.064756	0.000398939	
334	-172.12	-0.0564869	-0.0566053	0.0702147	0.000398939	
335	-172.42	-0.0564869	-0.0566053	0.0659069	0.000398939	
336	-173.42	-0.0564869	-0.0566053	0.0621253	0.000398939	
337	-174.52	-0.0564869	-0.0566053	0.0681101	0.000398939	
338	-175.22	-0.0564869	-0.0566053	0.0668934	0.000398939	
339	-176.42	-0.0564869	-0.0566053	0.0706751	0.000398939	
340	-177.12	-0.0564869	-0.0566053	0.0614018	0.000398939	
341	-177.72	-0.0564869	-0.0566053	0.0637037	0.000398939	
342	-178.62	-0.0564869	-0.0566053	0.0654794	0.000398939	
343	-179.62	-0.0564869	-0.0566053	0.0632762	0.000398939	
344	-180.62	-0.0564869	-0.0566053	0.0637037	0.000398939	
345	-181.82	-0.0564869	-0.0566053	0.0657754	0.000398939	
